Induced Winding Voltages at Rated Speed
Air-Gap Position (elec. degrees)
Voltage (V)
0	-1146.593366
1	-1146.571275
2	-1146.545491
3	-1146.515444
4	-1146.479689
5	-1146.438215
6	-1146.390103
7	-1146.334283
8	-1146.269508
9	-1146.194330
10	-1146.107059
11	-1146.005725
12	-1145.888028
13	-1145.751282
14	-1145.592344
15	-1145.407530
16	-1145.192519
17	-1144.942231
18	-1144.650680
19	-1144.310798
20	-1143.914215
21	-1143.450989
22	-1142.909269
23	-1142.274878
24	-1141.530777
25	-1140.656389
26	-1139.626736
27	-1138.411306
28	-1136.972585
29	-1135.264096
30	-1133.227771
31	-1130.790352
32	-1127.858353
33	-1124.310865
34	-1119.988984
35	-1114.679870
36	-1108.092263
37	-1099.818622
38	-1089.277886
39	-1075.635251
40	-1057.710671
41	-1033.935695
42	-1002.519444
43	-962.092290
44	-912.945400
45	-858.201819
46	-803.416485
47	-754.143305
48	-713.502208
49	-681.779054
50	-657.596545
51	-639.153508
52	-624.868229
53	-613.543947
54	-604.325086
55	-596.604946
56	-589.944447
57	-584.013525
58	-578.551512
59	-573.340299
60	-568.185272
61	-562.900490
62	-557.295620
63	-551.162613
64	-544.260080
65	-536.292813
66	-526.882738
67	-515.526022
68	-501.529729
69	-483.923570
70	-461.357217
71	-432.040737
72	-393.885737
73	-345.110939
74	-285.424321
75	-217.113878
76	-144.556112
77	-71.739978
78	0.000000
79	71.739978
80	144.556112
81	217.113878
82	285.424321
83	345.110939
84	393.885737
85	432.040737
86	461.357217
87	483.923570
88	501.529729
89	515.526022
90	526.882738
91	536.292813
92	544.260080
93	551.162613
94	557.295620
95	562.900490
96	568.185272
97	573.340299
98	578.551512
99	584.013525
100	589.944447
101	596.604946
102	604.325086
103	613.543947
104	624.868229
105	639.153508
106	657.596545
107	681.779054
108	713.502208
109	754.143305
110	803.416485
111	858.201819
112	912.945400
113	962.092290
114	1002.519444
115	1033.935695
116	1057.710671
117	1075.635251
118	1089.277886
119	1099.818622
120	1108.092263
121	1114.679870
122	1119.988984
123	1124.310865
124	1127.858353
125	1130.790352
126	1133.227771
127	1135.264096
128	1136.972585
129	1138.411306
130	1139.626736
131	1140.656389
132	1141.530777
133	1142.274878
134	1142.909269
135	1143.450989
136	1143.914215
137	1144.310798
138	1144.650680
139	1144.942231
140	1145.192519
141	1145.407530
142	1145.592344
143	1145.751282
144	1145.888028
145	1146.005725
146	1146.107059
147	1146.194330
148	1146.269508
149	1146.334283
150	1146.390103
151	1146.438215
152	1146.479689
153	1146.515444
154	1146.545491
155	1146.571275
156	1146.593366
157	1146.612249
158	1146.628342
159	1146.641997
160	1146.653514
161	1146.663147
162	1146.671106
163	1146.677567
164	1146.682670
165	1146.686528
166	1146.689224
167	1146.690819
168	1146.691347
169	1146.690819
170	1146.689224
171	1146.686528
172	1146.682670
173	1146.677567
174	1146.671106
175	1146.663147
176	1146.653514
177	1146.641997
178	1146.628342
179	1146.612249
180	1146.593366
181	1146.571275
182	1146.545491
183	1146.515444
184	1146.479689
185	1146.438215
186	1146.390103
187	1146.334283
188	1146.269508
189	1146.194330
190	1146.107059
191	1146.005725
192	1145.888028
193	1145.751282
194	1145.592344
195	1145.407530
196	1145.192519
197	1144.942231
198	1144.650680
199	1144.310798
200	1143.914215
201	1143.450989
202	1142.909269
203	1142.274878
204	1141.530777
205	1140.656389
206	1139.626736
207	1138.411306
208	1136.972585
209	1135.264096
210	1133.227771
211	1130.790352
212	1127.858353
213	1124.310865
214	1119.988984
215	1114.679870
216	1108.092263
217	1099.818622
218	1089.277886
219	1075.635251
220	1057.710671
221	1033.935695
222	1002.519444
223	962.092290
224	912.945400
225	858.201819
226	803.416485
227	754.143305
228	713.502208
229	681.779054
230	657.596545
231	639.153508
232	624.868229
233	613.543947
234	604.325086
235	596.604946
236	589.944447
237	584.013525
238	578.551512
239	573.340299
240	568.185272
241	562.900490
242	557.295620
243	551.162613
244	544.260080
245	536.292813
246	526.882738
247	515.526022
248	501.529729
249	483.923570
250	461.357217
251	432.040737
252	393.885737
253	345.110939
254	285.424321
255	217.113878
256	144.556112
257	71.739978
258	0.000000
259	-71.739978
260	-144.556112
261	-217.113878
262	-285.424321
263	-345.110939
264	-393.885737
265	-432.040737
266	-461.357217
267	-483.923570
268	-501.529729
269	-515.526022
270	-526.882738
271	-536.292813
272	-544.260080
273	-551.162613
274	-557.295620
275	-562.900490
276	-568.185272
277	-573.340299
278	-578.551512
279	-584.013525
280	-589.944447
281	-596.604946
282	-604.325086
283	-613.543947
284	-624.868229
285	-639.153508
286	-657.596545
287	-681.779054
288	-713.502208
289	-754.143305
290	-803.416485
291	-858.201819
292	-912.945400
293	-962.092290
294	-1002.519444
295	-1033.935695
296	-1057.710671
297	-1075.635251
298	-1089.277886
299	-1099.818622
300	-1108.092263
301	-1114.679870
302	-1119.988984
303	-1124.310865
304	-1127.858353
305	-1130.790352
306	-1133.227771
307	-1135.264096
308	-1136.972585
309	-1138.411306
310	-1139.626736
311	-1140.656389
312	-1141.530777
313	-1142.274878
314	-1142.909269
315	-1143.450989
316	-1143.914215
317	-1144.310798
318	-1144.650680
319	-1144.942231
320	-1145.192519
321	-1145.407530
322	-1145.592344
323	-1145.751282
324	-1145.888028
325	-1146.005725
326	-1146.107059
327	-1146.194330
328	-1146.269508
329	-1146.334283
330	-1146.390103
331	-1146.438215
332	-1146.479689
333	-1146.515444
334	-1146.545491
335	-1146.571275
336	-1146.593366
337	-1146.612249
338	-1146.628342
339	-1146.641997
340	-1146.653514
341	-1146.663147
342	-1146.671106
343	-1146.677567
344	-1146.682670
345	-1146.686528
346	-1146.689224
347	-1146.690819
348	-1146.691347
349	-1146.690819
350	-1146.689224
351	-1146.686528
352	-1146.682670
353	-1146.677567
354	-1146.671106
355	-1146.663147
356	-1146.653514
357	-1146.641997
358	-1146.628342
359	-1146.612249
360	-1146.593366
Phase Voltage ea
0	-1714.778637
1	-1709.471765
2	-1703.841111
3	-1697.678057
4	-1690.739769
5	-1682.731029
6	-1673.272841
7	-1661.860305
8	-1647.799237
9	-1630.117901
10	-1607.464276
11	-1578.046462
12	-1539.773766
13	-1490.862221
14	-1431.016664
15	-1362.521408
16	-1289.748631
17	-1216.682209
18	-1144.650680
19	-1072.570820
20	-999.358103
21	-926.337111
22	-857.484948
23	-797.163939
24	-747.645039
25	-708.615652
26	-678.269519
27	-654.487736
28	-635.442856
29	-619.738074
30	-606.345034
31	-594.497539
32	-583.598272
33	-573.148252
34	-562.693364
35	-551.779381
36	-539.906992
37	-526.478322
38	-510.726373
39	-491.621726
40	-467.766224
41	-437.330749
42	-398.194358
43	-348.548342
44	-288.077171
45	-219.048311
46	-145.819940
47	-72.364252
48	0.000000
49	72.364252
50	145.819940
51	219.048311
52	288.077171
53	348.548342
54	398.194358
55	437.330749
56	467.766224
57	491.621726
58	510.726373
59	526.478322
60	539.906992
61	551.779381
62	562.693364
63	573.148252
64	583.598272
65	594.497539
66	606.345034
67	619.738074
68	635.442856
69	654.487736
70	678.269519
71	708.615652
72	747.645039
73	797.163939
74	857.484948
75	926.337111
76	999.358103
77	1072.570820
78	1144.650680
79	1216.682209
80	1289.748631
81	1362.521408
82	1431.016664
83	1490.862221
84	1539.773766
85	1578.046462
86	1607.464276
87	1630.117901
88	1647.799237
89	1661.860305
90	1673.272841
91	1682.731029
92	1690.739769
93	1697.678057
94	1703.841111
95	1709.471765
96	1714.778637
97	1719.952549
98	1725.179854
99	1730.655522
100	1736.597961
101	1743.268093
102	1750.996192
103	1760.221514
104	1771.550899
105	1785.840036
106	1804.285769
107	1828.469873
108	1860.193555
109	1900.834124
110	1950.105710
111	2004.888347
112	2059.628070
113	2108.769857
114	2149.190550
115	2180.598842
116	2204.364185
117	2222.277247
118	2235.906227
119	2246.430871
120	2254.685629
121	2261.251146
122	2266.534475
123	2270.826309
124	2274.338041
125	2277.228567
126	2279.617875
127	2281.598378
128	2283.242093
129	2284.605637
130	2285.733795
131	2286.662114
132	2287.418805
133	2288.026161
134	2288.501613
135	2288.858518
136	2289.106734
137	2289.253029
138	2289.301360
139	2289.253029
140	2289.106734
141	2288.858518
142	2288.501613
143	2288.026161
144	2287.418805
145	2286.662114
146	2285.733795
147	2284.605637
148	2283.242093
149	2281.598378
150	2279.617875
151	2277.228567
152	2274.338041
153	2270.826309
154	2266.534475
155	2261.251146
156	2254.685629
157	2246.430871
158	2235.906227
159	2222.277247
160	2204.364185
161	2180.598842
162	2149.190550
163	2108.769857
164	2059.628070
165	2004.888347
166	1950.105710
167	1900.834124
168	1860.193555
169	1828.469873
170	1804.285769
171	1785.840036
172	1771.550899
173	1760.221514
174	1750.996192
175	1743.268093
176	1736.597961
177	1730.655522
178	1725.179854
179	1719.952549
180	1714.778637
181	1709.471765
182	1703.841111
183	1697.678057
184	1690.739769
185	1682.731029
186	1673.272841
187	1661.860305
188	1647.799237
189	1630.117901
190	1607.464276
191	1578.046462
192	1539.773766
193	1490.862221
194	1431.016664
195	1362.521408
196	1289.748631
197	1216.682209
198	1144.650680
199	1072.570820
200	999.358103
201	926.337111
202	857.484948
203	797.163939
204	747.645039
205	708.615652
206	678.269519
207	654.487736
208	635.442856
209	619.738074
210	606.345034
211	594.497539
212	583.598272
213	573.148252
214	562.693364
215	551.779381
216	539.906992
217	526.478322
218	510.726373
219	491.621726
220	467.766224
221	437.330749
222	398.194358
223	348.548342
224	288.077171
225	219.048311
226	145.819940
227	72.364252
228	-0.000000
229	-72.364252
230	-145.819940
231	-219.048311
232	-288.077171
233	-348.548342
234	-398.194358
235	-437.330749
236	-467.766224
237	-491.621726
238	-510.726373
239	-526.478322
240	-539.906992
241	-551.779381
242	-562.693364
243	-573.148252
244	-583.598272
245	-594.497539
246	-606.345034
247	-619.738074
248	-635.442856
249	-654.487736
250	-678.269519
251	-708.615652
252	-747.645039
253	-797.163939
254	-857.484948
255	-926.337111
256	-999.358103
257	-1072.570820
258	-1144.650680
259	-1216.682209
260	-1289.748631
261	-1362.521408
262	-1431.016664
263	-1490.862221
264	-1539.773766
265	-1578.046462
266	-1607.464276
267	-1630.117901
268	-1647.799237
269	-1661.860305
270	-1673.272841
271	-1682.731029
272	-1690.739769
273	-1697.678057
274	-1703.841111
275	-1709.471765
276	-1714.778637
277	-1719.952549
278	-1725.179854
279	-1730.655522
280	-1736.597961
281	-1743.268093
282	-1750.996192
283	-1760.221514
284	-1771.550899
285	-1785.840036
286	-1804.285769
287	-1828.469873
288	-1860.193555
289	-1900.834124
290	-1950.105710
291	-2004.888347
292	-2059.628070
293	-2108.769857
294	-2149.190550
295	-2180.598842
296	-2204.364185
297	-2222.277247
298	-2235.906227
299	-2246.430871
300	-2254.685629
301	-2261.251146
302	-2266.534475
303	-2270.826309
304	-2274.338041
305	-2277.228567
306	-2279.617875
307	-2281.598378
308	-2283.242093
309	-2284.605637
310	-2285.733795
311	-2286.662114
312	-2287.418805
313	-2288.026161
314	-2288.501613
315	-2288.858518
316	-2289.106734
317	-2289.253029
318	-2289.301360
319	-2289.253029
320	-2289.106734
321	-2288.858518
322	-2288.501613
323	-2288.026161
324	-2287.418805
325	-2286.662114
326	-2285.733795
327	-2284.605637
328	-2283.242093
329	-2281.598378
330	-2279.617875
331	-2277.228567
332	-2274.338041
333	-2270.826309
334	-2266.534475
335	-2261.251146
336	-2254.685629
337	-2246.430871
338	-2235.906227
339	-2222.277247
340	-2204.364185
341	-2180.598842
342	-2149.190550
343	-2108.769857
344	-2059.628070
345	-2004.888347
346	-1950.105710
347	-1900.834124
348	-1860.193555
349	-1828.469873
350	-1804.285769
351	-1785.840036
352	-1771.550899
353	-1760.221514
354	-1750.996192
355	-1743.268093
356	-1736.597961
357	-1730.655522
358	-1725.179854
359	-1719.952549
360	-1714.778637
Line Voltage eab
