Winding Currents under Load 
Air-Gap Position (elec. degrees)
Current (A)
0	-2.47066
1	-2.4256
2	-2.37961
3	-2.33272
4	-2.28498
5	-2.23646
6	-2.18715
7	-2.13707
8	-2.08625
9	-2.03474
10	-1.98258
11	-1.92986
12	-1.87664
13	-1.82305
14	-1.7692
15	-1.71516
16	-1.66099
17	-1.6067
18	-1.55227
19	-1.49774
20	-1.4431
21	-1.38835
22	-1.33348
23	-1.2784
24	-1.22302
25	-1.16724
26	-1.11099
27	-1.05421
28	-0.996867
29	-0.93894
30	-0.880415
31	-0.821291
32	-0.761571
33	-0.701267
34	-0.640402
35	-0.578985
36	-0.517048
37	-0.454652
38	-0.391844
39	-0.328701
40	-0.265326
41	-0.201859
42	-0.138482
43	-0.0754073
44	-0.0128517
45	0.0490257
46	0.110168
47	0.170619
48	0.230467
49	0.289789
50	0.348647
51	0.407077
52	0.465158
53	0.522996
54	0.580717
55	0.638434
56	0.696238
57	0.754196
58	0.812351
59	0.870729
60	0.929342
61	0.988217
62	1.04731
63	1.10661
64	1.16609
65	1.22577
66	1.28557
67	1.34546
68	1.40535
69	1.46518
70	1.5248
71	1.58408
72	1.64279
73	1.7007
74	1.75755
75	1.81314
76	1.86736
77	1.92018
78	1.9716
79	2.02165
80	2.07023
81	2.11733
82	2.16305
83	2.20754
84	2.25104
85	2.29376
86	2.33587
87	2.37751
88	2.41877
89	2.45972
90	2.50039
91	2.54082
92	2.581
93	2.62096
94	2.66071
95	2.70016
96	2.73931
97	2.7782
98	2.81675
99	2.8549
100	2.89257
101	2.92968
102	2.96609
103	3.00166
104	3.0362
105	3.06959
106	3.1017
107	3.13245
108	3.16174
109	3.18944
110	3.21551
111	3.23978
112	3.26232
113	3.28327
114	3.30284
115	3.32124
116	3.33865
117	3.35518
118	3.37093
119	3.38596
120	3.40032
121	3.4141
122	3.4272
123	3.43962
124	3.45136
125	3.46251
126	3.47301
127	3.48281
128	3.49189
129	3.5002
130	3.50768
131	3.51422
132	3.51972
133	3.52405
134	3.52704
135	3.5286
136	3.52865
137	3.52718
138	3.52417
139	3.51969
140	3.51362
141	3.50598
142	3.49682
143	3.48623
144	3.47435
145	3.46129
146	3.44715
147	3.43201
148	3.41593
149	3.39895
150	3.3811
151	3.3624
152	3.34287
153	3.32252
154	3.3014
155	3.27944
156	3.25665
157	3.23314
158	3.20888
159	3.18389
160	3.15819
161	3.13183
162	3.10486
163	3.07735
164	3.04934
165	3.02085
166	2.99181
167	2.96211
168	2.93156
169	2.89994
170	2.86715
171	2.83299
172	2.79744
173	2.76055
174	2.7224
175	2.68309
176	2.64268
177	2.60126
178	2.55885
179	2.51551
180	2.47125
181	2.42616
182	2.38016
183	2.33328
184	2.28553
185	2.23701
186	2.1877
187	2.13762
188	2.0868
189	2.03529
190	1.98314
191	1.93041
192	1.8772
193	1.82361
194	1.76975
195	1.71572
196	1.66155
197	1.60725
198	1.55282
199	1.4983
200	1.44365
201	1.3889
202	1.33403
203	1.27895
204	1.22356
205	1.16779
206	1.11153
207	1.05475
208	0.997413
209	0.939484
210	0.880959
211	0.821835
212	0.762114
213	0.701809
214	0.640944
215	0.579526
216	0.517589
217	0.455192
218	0.392383
219	0.32924
220	0.265864
221	0.202397
222	0.139019
223	0.0759441
224	0.013388
225	-0.0484899
226	-0.109633
227	-0.170085
228	-0.229933
229	-0.289255
230	-0.348113
231	-0.406544
232	-0.464625
233	-0.522464
234	-0.580185
235	-0.637902
236	-0.695707
237	-0.753666
238	-0.811821
239	-0.870198
240	-0.928812
241	-0.987687
242	-1.04678
243	-1.10608
244	-1.16557
245	-1.22524
246	-1.28504
247	-1.34493
248	-1.40483
249	-1.46465
250	-1.52427
251	-1.58355
252	-1.64226
253	-1.70017
254	-1.75702
255	-1.81261
256	-1.86683
257	-1.91965
258	-1.97107
259	-2.02112
260	-2.06969
261	-2.1168
262	-2.16252
263	-2.20701
264	-2.25051
265	-2.29322
266	-2.33533
267	-2.37697
268	-2.41824
269	-2.45918
270	-2.49986
271	-2.54028
272	-2.58047
273	-2.62042
274	-2.66017
275	-2.69962
276	-2.73877
277	-2.77766
278	-2.8162
279	-2.85435
280	-2.89203
281	-2.92914
282	-2.96555
283	-3.00111
284	-3.03566
285	-3.06904
286	-3.10115
287	-3.13189
288	-3.16119
289	-3.18889
290	-3.21496
291	-3.23923
292	-3.26176
293	-3.28271
294	-3.30228
295	-3.32068
296	-3.33808
297	-3.35461
298	-3.37037
299	-3.3854
300	-3.39975
301	-3.41354
302	-3.42663
303	-3.43905
304	-3.45079
305	-3.46194
306	-3.47243
307	-3.48224
308	-3.49132
309	-3.49963
310	-3.5071
311	-3.51364
312	-3.51915
313	-3.52347
314	-3.52646
315	-3.52802
316	-3.52807
317	-3.52659
318	-3.52358
319	-3.51911
320	-3.51303
321	-3.50539
322	-3.49623
323	-3.48565
324	-3.47376
325	-3.4607
326	-3.44656
327	-3.43142
328	-3.41534
329	-3.39836
330	-3.38051
331	-3.36181
332	-3.34227
333	-3.32192
334	-3.3008
335	-3.27884
336	-3.25605
337	-3.23255
338	-3.20828
339	-3.18329
340	-3.15759
341	-3.13123
342	-3.10427
343	-3.07675
344	-3.04875
345	-3.02025
346	-2.99122
347	-2.96151
348	-2.93096
349	-2.89934
350	-2.86655
351	-2.83239
352	-2.79685
353	-2.75996
354	-2.72181
355	-2.68249
356	-2.64209
357	-2.60066
358	-2.55826
359	-2.51492
360	-2.47066
Phase Current ia
0	-0.929161
1	-0.987885
2	-1.04698
3	-1.10628
4	-1.16576
5	-1.22544
6	-1.28524
7	-1.34513
8	-1.40502
9	-1.46484
10	-1.52447
11	-1.58375
12	-1.64246
13	-1.70037
14	-1.75722
15	-1.81281
16	-1.86703
17	-1.91985
18	-1.97127
19	-2.02132
20	-2.06989
21	-2.117
22	-2.16272
23	-2.20721
24	-2.25071
25	-2.29342
26	-2.33553
27	-2.37718
28	-2.41844
29	-2.45939
30	-2.50006
31	-2.54048
32	-2.58067
33	-2.62062
34	-2.66037
35	-2.69983
36	-2.73897
37	-2.77786
38	-2.81641
39	-2.85456
40	-2.89224
41	-2.92935
42	-2.96576
43	-3.00132
44	-3.03587
45	-3.06925
46	-3.10136
47	-3.13211
48	-3.1614
49	-3.18911
50	-3.21518
51	-3.23945
52	-3.26198
53	-3.28293
54	-3.30251
55	-3.32091
56	-3.33831
57	-3.35484
58	-3.37059
59	-3.38563
60	-3.39998
61	-3.41377
62	-3.42686
63	-3.43928
64	-3.45102
65	-3.46217
66	-3.47267
67	-3.48247
68	-3.49155
69	-3.49987
70	-3.50734
71	-3.51388
72	-3.51939
73	-3.52371
74	-3.52671
75	-3.52826
76	-3.52831
77	-3.52684
78	-3.52383
79	-3.51936
80	-3.51328
81	-3.50564
82	-3.49649
83	-3.4859
84	-3.47402
85	-3.46095
86	-3.44682
87	-3.43168
88	-3.4156
89	-3.39862
90	-3.38077
91	-3.36207
92	-3.34254
93	-3.32219
94	-3.30107
95	-3.27911
96	-3.25632
97	-3.23282
98	-3.20856
99	-3.18356
100	-3.15786
101	-3.13151
102	-3.10454
103	-3.07703
104	-3.04902
105	-3.02053
106	-2.9915
107	-2.96179
108	-2.93124
109	-2.89962
110	-2.86683
111	-2.83267
112	-2.79713
113	-2.76024
114	-2.72209
115	-2.68278
116	-2.64237
117	-2.60095
118	-2.55854
119	-2.5152
120	-2.47094
121	-2.42585
122	-2.37986
123	-2.33298
124	-2.28523
125	-2.23671
126	-2.1874
127	-2.13732
128	-2.0865
129	-2.03499
130	-1.98284
131	-1.93011
132	-1.8769
133	-1.82331
134	-1.76946
135	-1.71542
136	-1.66125
137	-1.60696
138	-1.55253
139	-1.498
140	-1.44336
141	-1.38861
142	-1.33374
143	-1.27866
144	-1.22328
145	-1.1675
146	-1.11125
147	-1.05447
148	-0.997127
149	-0.939199
150	-0.880675
151	-0.821551
152	-0.761831
153	-0.701527
154	-0.640662
155	-0.579244
156	-0.517308
157	-0.454911
158	-0.392103
159	-0.32896
160	-0.265585
161	-0.202118
162	-0.138741
163	-0.0756661
164	-0.0131103
165	0.0487673
166	0.10991
167	0.170361
168	0.230209
169	0.289532
170	0.348389
171	0.40682
172	0.464901
173	0.52274
174	0.58046
175	0.638177
176	0.695982
177	0.75394
178	0.812095
179	0.870473
180	0.929087
181	0.987961
182	1.04706
183	1.10636
184	1.16584
185	1.22551
186	1.28532
187	1.3452
188	1.4051
189	1.46492
190	1.52455
191	1.58382
192	1.64254
193	1.70044
194	1.7573
195	1.81289
196	1.86711
197	1.91993
198	1.97135
199	2.0214
200	2.06997
201	2.11708
202	2.16279
203	2.20729
204	2.25078
205	2.2935
206	2.33561
207	2.37725
208	2.41851
209	2.45946
210	2.50013
211	2.54055
212	2.58074
213	2.62069
214	2.66044
215	2.6999
216	2.73904
217	2.77793
218	2.81648
219	2.85463
220	2.8923
221	2.92941
222	2.96582
223	3.00138
224	3.03593
225	3.06932
226	3.10142
227	3.13217
228	3.16146
229	3.18917
230	3.21524
231	3.2395
232	3.26204
233	3.28299
234	3.30256
235	3.32096
236	3.33836
237	3.35489
238	3.37064
239	3.38567
240	3.40003
241	3.41381
242	3.42691
243	3.43933
244	3.45106
245	3.46222
246	3.47271
247	3.48251
248	3.49159
249	3.4999
250	3.50737
251	3.51392
252	3.51942
253	3.52374
254	3.52673
255	3.52829
256	3.52833
257	3.52686
258	3.52385
259	3.51938
260	3.5133
261	3.50566
262	3.4965
263	3.48591
264	3.47403
265	3.46096
266	3.44682
267	3.43168
268	3.4156
269	3.39862
270	3.38077
271	3.36207
272	3.34253
273	3.32218
274	3.30106
275	3.2791
276	3.25631
277	3.2328
278	3.20854
279	3.18354
280	3.15785
281	3.13149
282	3.10452
283	3.077
284	3.049
285	3.0205
286	2.99147
287	2.96176
288	2.93121
289	2.89959
290	2.8668
291	2.83264
292	2.79709
293	2.7602
294	2.72205
295	2.68273
296	2.64233
297	2.6009
298	2.5585
299	2.51515
300	2.47089
301	2.4258
302	2.37981
303	2.33292
304	2.28518
305	2.23666
306	2.18734
307	2.13726
308	2.08645
309	2.03493
310	1.98278
311	1.93005
312	1.87684
313	1.82325
314	1.76939
315	1.71536
316	1.66119
317	1.60689
318	1.55246
319	1.49794
320	1.44329
321	1.38854
322	1.33367
323	1.27859
324	1.22321
325	1.16743
326	1.11118
327	1.0544
328	0.997055
329	0.939127
330	0.880602
331	0.821478
332	0.761758
333	0.701453
334	0.640588
335	0.57917
336	0.517234
337	0.454837
338	0.392028
339	0.328885
340	0.26551
341	0.202043
342	0.138665
343	0.0755906
344	0.0130347
345	-0.0488429
346	-0.109986
347	-0.170437
348	-0.230285
349	-0.289607
350	-0.348465
351	-0.406895
352	-0.464976
353	-0.522815
354	-0.580535
355	-0.638252
356	-0.696057
357	-0.754015
358	-0.81217
359	-0.870548
360	-0.929161
Phase Current ib
0	3.39982
1	3.41349
2	3.42659
3	3.43901
4	3.45074
5	3.46189
6	3.47239
7	3.48219
8	3.49127
9	3.49958
10	3.50705
11	3.5136
12	3.5191
13	3.52342
14	3.52642
15	3.52797
16	3.52802
17	3.52655
18	3.52354
19	3.51907
20	3.51299
21	3.50535
22	3.49619
23	3.48561
24	3.47372
25	3.46066
26	3.44652
27	3.43138
28	3.41531
29	3.39833
30	3.38047
31	3.36177
32	3.34224
33	3.32189
34	3.30077
35	3.27881
36	3.25602
37	3.23252
38	3.20825
39	3.18326
40	3.15756
41	3.1312
42	3.10424
43	3.07673
44	3.04872
45	3.02023
46	2.99119
47	2.96149
48	2.93094
49	2.89932
50	2.86653
51	2.83237
52	2.79683
53	2.75994
54	2.72179
55	2.68247
56	2.64207
57	2.60064
58	2.55824
59	2.5149
60	2.47064
61	2.42555
62	2.37955
63	2.33267
64	2.28493
65	2.23641
66	2.18709
67	2.13702
68	2.0862
69	2.03469
70	1.98254
71	1.92981
72	1.8766
73	1.82301
74	1.76915
75	1.71512
76	1.66095
77	1.60666
78	1.55223
79	1.4977
80	1.44306
81	1.38831
82	1.33344
83	1.27836
84	1.22298
85	1.1672
86	1.11095
87	1.05417
88	0.996829
89	0.938902
90	0.880378
91	0.821254
92	0.761535
93	0.701231
94	0.640366
95	0.578949
96	0.517013
97	0.454617
98	0.391809
99	0.328666
100	0.265291
101	0.201825
102	0.138447
103	0.075373
104	0.0128175
105	-0.0490598
106	-0.110202
107	-0.170653
108	-0.230501
109	-0.289823
110	-0.34868
111	-0.407111
112	-0.465192
113	-0.52303
114	-0.580751
115	-0.638468
116	-0.696272
117	-0.75423
118	-0.812385
119	-0.870763
120	-0.929376
121	-0.988251
122	-1.04735
123	-1.10665
124	-1.16613
125	-1.2258
126	-1.28561
127	-1.34549
128	-1.40539
129	-1.46521
130	-1.52484
131	-1.58411
132	-1.64282
133	-1.70073
134	-1.75759
135	-1.81318
136	-1.86739
137	-1.92022
138	-1.97164
139	-2.02169
140	-2.07026
141	-2.11737
142	-2.16308
143	-2.20758
144	-2.25107
145	-2.29379
146	-2.3359
147	-2.37754
148	-2.4188
149	-2.45975
150	-2.50042
151	-2.54085
152	-2.58104
153	-2.62099
154	-2.66074
155	-2.70019
156	-2.73934
157	-2.77823
158	-2.81678
159	-2.85493
160	-2.8926
161	-2.92971
162	-2.96612
163	-3.00168
164	-3.03623
165	-3.06962
166	-3.10172
167	-3.13247
168	-3.16177
169	-3.18947
170	-3.21554
171	-3.23981
172	-3.26234
173	-3.28329
174	-3.30287
175	-3.32126
176	-3.33867
177	-3.3552
178	-3.37095
179	-3.38598
180	-3.40034
181	-3.41412
182	-3.42722
183	-3.43964
184	-3.45137
185	-3.46253
186	-3.47302
187	-3.48282
188	-3.4919
189	-3.50021
190	-3.50769
191	-3.51423
192	-3.51973
193	-3.52405
194	-3.52705
195	-3.5286
196	-3.52865
197	-3.52718
198	-3.52417
199	-3.51969
200	-3.51362
201	-3.50598
202	-3.49682
203	-3.48623
204	-3.47435
205	-3.46128
206	-3.44714
207	-3.432
208	-3.41592
209	-3.39894
210	-3.38109
211	-3.36239
212	-3.34286
213	-3.3225
214	-3.30138
215	-3.27942
216	-3.25663
217	-3.23313
218	-3.20886
219	-3.18387
220	-3.15817
221	-3.13181
222	-3.10484
223	-3.07733
224	-3.04932
225	-3.02083
226	-2.99179
227	-2.96208
228	-2.93153
229	-2.89991
230	-2.86712
231	-2.83296
232	-2.79742
233	-2.76053
234	-2.72238
235	-2.68306
236	-2.64265
237	-2.60122
238	-2.55882
239	-2.51547
240	-2.47122
241	-2.42612
242	-2.38013
243	-2.33325
244	-2.2855
245	-2.23698
246	-2.18766
247	-2.13758
248	-2.08677
249	-2.03525
250	-1.9831
251	-1.93037
252	-1.87716
253	-1.82357
254	-1.76971
255	-1.71567
256	-1.6615
257	-1.60721
258	-1.55278
259	-1.49825
260	-1.4436
261	-1.38886
262	-1.33398
263	-1.2789
264	-1.22352
265	-1.16774
266	-1.11149
267	-1.05471
268	-0.997367
269	-0.939438
270	-0.880913
271	-0.821788
272	-0.762068
273	-0.701763
274	-0.640897
275	-0.579479
276	-0.517542
277	-0.455145
278	-0.392336
279	-0.329192
280	-0.265817
281	-0.20235
282	-0.138971
283	-0.0758964
284	-0.0133402
285	0.0485377
286	0.109681
287	0.170132
288	0.229981
289	0.289303
290	0.348161
291	0.406592
292	0.464673
293	0.522512
294	0.580233
295	0.63795
296	0.695755
297	0.753713
298	0.811868
299	0.870246
300	0.928859
301	0.987734
302	1.04683
303	1.10613
304	1.16561
305	1.22529
306	1.28509
307	1.34498
308	1.40487
309	1.46469
310	1.52432
311	1.58359
312	1.64231
313	1.70022
314	1.75707
315	1.81266
316	1.86688
317	1.9197
318	1.97112
319	2.02117
320	2.06974
321	2.11685
322	2.16256
323	2.20706
324	2.25056
325	2.29327
326	2.33538
327	2.37702
328	2.41829
329	2.45923
330	2.49991
331	2.54033
332	2.58052
333	2.62047
334	2.66022
335	2.69967
336	2.73882
337	2.77771
338	2.81626
339	2.8544
340	2.89208
341	2.92919
342	2.9656
343	3.00116
344	3.03571
345	3.0691
346	3.1012
347	3.13195
348	3.16125
349	3.18895
350	3.21502
351	3.23929
352	3.26182
353	3.28277
354	3.30235
355	3.32075
356	3.33815
357	3.35468
358	3.37043
359	3.38546
360	3.39982
Phase Current ic
