Induced Winding Voltages at Rated Speed
Air-Gap Position (elec. degrees)
Voltage (V)
0	-411.853028
1	-403.513771
2	-394.920342
3	-386.102723
4	-377.133993
5	-368.112635
6	-359.136378
7	-350.276009
8	-341.557587
9	-332.957800
10	-324.412361
11	-315.833935
12	-307.134843
13	-298.249754
14	-289.153589
15	-279.869871
16	-270.466025
17	-261.035495
18	-251.671446
19	-242.440451
20	-233.364595
21	-224.416728
22	-215.528776
23	-206.609555
24	-197.567374
25	-188.332608
26	-178.875445
27	-169.214071
28	-159.409740
29	-149.548624
30	-139.715171
31	-129.965374
32	-120.308385
33	-110.701208
34	-101.056431
35	-91.259560
36	-81.191416
37	-70.751128
38	-59.875433
39	-48.550215
40	-36.811486
41	-24.736207
42	-12.427373
43	0.000000
44	12.427373
45	24.736207
46	36.811486
47	48.550215
48	59.875433
49	70.751128
50	81.191416
51	91.259560
52	101.056431
53	110.701208
54	120.308385
55	129.965374
56	139.715171
57	149.548624
58	159.409740
59	169.214071
60	178.875445
61	188.332608
62	197.567374
63	206.609555
64	215.528776
65	224.416728
66	233.364595
67	242.440451
68	251.671446
69	261.035495
70	270.466025
71	279.869871
72	289.153589
73	298.249754
74	307.134843
75	315.833935
76	324.412361
77	332.957800
78	341.557587
79	350.276009
80	359.136378
81	368.112635
82	377.133993
83	386.102723
84	394.920342
85	403.513771
86	411.853028
87	419.955716
88	427.878388
89	435.698299
90	443.490276
91	451.303469
92	459.142776
93	466.959679
94	474.656047
95	482.101099
96	489.156966
97	495.704727
98	501.663016
99	506.995101
100	511.705327
101	515.829019
102	519.420453
103	522.542219
104	525.257435
105	527.624968
106	529.697066
107	531.518632
108	533.127485
109	534.555103
110	535.797041
111	536.905151
112	537.897098
113	538.787553
114	539.588765
115	540.311030
116	540.963058
117	541.552266
118	542.085008
119	542.566759
120	543.002256
121	543.395615
122	543.719931
123	544.008655
124	544.264350
125	544.489232
126	544.685203
127	544.853891
128	544.996670
129	545.114682
130	545.208856
131	545.279919
132	545.328409
133	545.354677
134	545.328409
135	545.279919
136	545.208856
137	545.114682
138	544.996670
139	544.853891
140	544.685203
141	544.489232
142	544.264350
143	544.008655
144	543.719931
145	543.395615
146	543.002256
147	542.566759
148	542.085008
149	541.552266
150	540.963058
151	540.311030
152	539.588765
153	538.787553
154	537.897098
155	536.905151
156	535.797041
157	534.555103
158	533.127485
159	531.518632
160	529.697066
161	527.624968
162	525.257435
163	522.542219
164	519.420453
165	515.829019
166	511.705327
167	506.995101
168	501.663016
169	495.704727
170	489.156966
171	482.101099
172	474.656047
173	466.959679
174	459.142776
175	451.303469
176	443.490276
177	435.698299
178	427.878388
179	419.955716
180	411.853028
181	403.513771
182	394.920342
183	386.102723
184	377.133993
185	368.112635
186	359.136378
187	350.276009
188	341.557587
189	332.957800
190	324.412361
191	315.833935
192	307.134843
193	298.249754
194	289.153589
195	279.869871
196	270.466025
197	261.035495
198	251.671446
199	242.440451
200	233.364595
201	224.416728
202	215.528776
203	206.609555
204	197.567374
205	188.332608
206	178.875445
207	169.214071
208	159.409740
209	149.548624
210	139.715171
211	129.965374
212	120.308385
213	110.701208
214	101.056431
215	91.259560
216	81.191416
217	70.751128
218	59.875433
219	48.550215
220	36.811486
221	24.736207
222	12.427373
223	0.000000
224	-12.427373
225	-24.736207
226	-36.811486
227	-48.550215
228	-59.875433
229	-70.751128
230	-81.191416
231	-91.259560
232	-101.056431
233	-110.701208
234	-120.308385
235	-129.965374
236	-139.715171
237	-149.548624
238	-159.409740
239	-169.214071
240	-178.875445
241	-188.332608
242	-197.567374
243	-206.609555
244	-215.528776
245	-224.416728
246	-233.364595
247	-242.440451
248	-251.671446
249	-261.035495
250	-270.466025
251	-279.869871
252	-289.153589
253	-298.249754
254	-307.134843
255	-315.833935
256	-324.412361
257	-332.957800
258	-341.557587
259	-350.276009
260	-359.136378
261	-368.112635
262	-377.133993
263	-386.102723
264	-394.920342
265	-403.513771
266	-411.853028
267	-419.955716
268	-427.878388
269	-435.698299
270	-443.490276
271	-451.303469
272	-459.142776
273	-466.959679
274	-474.656047
275	-482.101099
276	-489.156966
277	-495.704727
278	-501.663016
279	-506.995101
280	-511.705327
281	-515.829019
282	-519.420453
283	-522.542219
284	-525.257435
285	-527.624968
286	-529.697066
287	-531.518632
288	-533.127485
289	-534.555103
290	-535.797041
291	-536.905151
292	-537.897098
293	-538.787553
294	-539.588765
295	-540.311030
296	-540.963058
297	-541.552266
298	-542.085008
299	-542.566759
300	-543.002256
301	-543.395615
302	-543.719931
303	-544.008655
304	-544.264350
305	-544.489232
306	-544.685203
307	-544.853891
308	-544.996670
309	-545.114682
310	-545.208856
311	-545.279919
312	-545.328409
313	-545.354677
314	-545.328409
315	-545.279919
316	-545.208856
317	-545.114682
318	-544.996670
319	-544.853891
320	-544.685203
321	-544.489232
322	-544.264350
323	-544.008655
324	-543.719931
325	-543.395615
326	-543.002256
327	-542.566759
328	-542.085008
329	-541.552266
330	-540.963058
331	-540.311030
332	-539.588765
333	-538.787553
334	-537.897098
335	-536.905151
336	-535.797041
337	-534.555103
338	-533.127485
339	-531.518632
340	-529.697066
341	-527.624968
342	-525.257435
343	-522.542219
344	-519.420453
345	-515.829019
346	-511.705327
347	-506.995101
348	-501.663016
349	-495.704727
350	-489.156966
351	-482.101099
352	-474.656047
353	-466.959679
354	-459.142776
355	-451.303469
356	-443.490276
357	-435.698299
358	-427.878388
359	-419.955716
360	-411.853028
Phase Voltage ea
0	-232.977583
1	-215.181163
2	-197.352968
3	-179.493168
4	-161.605217
5	-143.695907
6	-125.771784
7	-107.835558
8	-89.886141
9	-71.922305
10	-53.946336
11	-35.964064
12	-17.981254
13	0.000000
14	17.981254
15	35.964064
16	53.946336
17	71.922305
18	89.886141
19	107.835558
20	125.771784
21	143.695907
22	161.605217
23	179.493168
24	197.352968
25	215.181163
26	232.977583
27	250.741645
28	268.468648
29	286.149675
30	303.775105
31	321.338095
32	338.834391
33	356.258471
34	373.599616
35	390.841539
36	407.965550
37	424.953599
38	441.787583
39	458.444886
40	474.893841
41	491.092812
42	506.993081
43	522.542219
44	537.684808
45	552.361175
46	566.508552
47	580.068846
48	593.002918
49	605.306231
50	616.988457
51	628.164711
52	638.953529
53	649.488761
54	659.897150
55	670.276404
56	680.678229
57	691.100890
58	701.494748
59	711.780830
60	721.877701
61	731.728223
62	741.287305
63	750.618210
64	759.793126
65	768.905960
66	778.049798
67	787.294343
68	796.668116
69	806.150177
70	815.674880
71	825.149790
72	834.481998
73	843.604432
74	852.463252
75	861.113854
76	869.621216
77	878.072482
78	886.554257
79	895.129901
80	903.821581
81	912.601867
82	921.398343
83	930.111377
84	938.640273
85	946.909386
86	954.855284
87	962.522475
88	969.963396
89	977.250565
90	984.453334
91	991.614499
92	998.731541
93	1005.747232
94	1012.553145
95	1019.006250
96	1024.954007
97	1030.259830
98	1034.790501
99	1038.513732
100	1041.402393
101	1043.453987
102	1044.677888
103	1045.084438
104	1044.677888
105	1043.453987
106	1041.402393
107	1038.513732
108	1034.790501
109	1030.259830
110	1024.954007
111	1019.006250
112	1012.553145
113	1005.747232
114	998.731541
115	991.614499
116	984.453334
117	977.250565
118	969.963396
119	962.522475
120	954.855284
121	946.909386
122	938.640273
123	930.111377
124	921.398343
125	912.601867
126	903.821581
127	895.129901
128	886.554257
129	878.072482
130	869.621216
131	861.113854
132	852.463252
133	843.604432
134	834.481998
135	825.149790
136	815.674880
137	806.150177
138	796.668116
139	787.294343
140	778.049798
141	768.905960
142	759.793126
143	750.618210
144	741.287305
145	731.728223
146	721.877701
147	711.780830
148	701.494748
149	691.100890
150	680.678229
151	670.276404
152	659.897150
153	649.488761
154	638.953529
155	628.164711
156	616.988457
157	605.306231
158	593.002918
159	580.068846
160	566.508552
161	552.361175
162	537.684808
163	522.542219
164	506.993081
165	491.092812
166	474.893841
167	458.444886
168	441.787583
169	424.953599
170	407.965550
171	390.841539
172	373.599616
173	356.258471
174	338.834391
175	321.338095
176	303.775105
177	286.149675
178	268.468648
179	250.741645
180	232.977583
181	215.181163
182	197.352968
183	179.493168
184	161.605217
185	143.695907
186	125.771784
187	107.835558
188	89.886141
189	71.922305
190	53.946336
191	35.964064
192	17.981254
193	-0.000000
194	-17.981254
195	-35.964064
196	-53.946336
197	-71.922305
198	-89.886141
199	-107.835558
200	-125.771784
201	-143.695907
202	-161.605217
203	-179.493168
204	-197.352968
205	-215.181163
206	-232.977583
207	-250.741645
208	-268.468648
209	-286.149675
210	-303.775105
211	-321.338095
212	-338.834391
213	-356.258471
214	-373.599616
215	-390.841539
216	-407.965550
217	-424.953599
218	-441.787583
219	-458.444886
220	-474.893841
221	-491.092812
222	-506.993081
223	-522.542219
224	-537.684808
225	-552.361175
226	-566.508552
227	-580.068846
228	-593.002918
229	-605.306231
230	-616.988457
231	-628.164711
232	-638.953529
233	-649.488761
234	-659.897150
235	-670.276404
236	-680.678229
237	-691.100890
238	-701.494748
239	-711.780830
240	-721.877701
241	-731.728223
242	-741.287305
243	-750.618210
244	-759.793126
245	-768.905960
246	-778.049798
247	-787.294343
248	-796.668116
249	-806.150177
250	-815.674880
251	-825.149790
252	-834.481998
253	-843.604432
254	-852.463252
255	-861.113854
256	-869.621216
257	-878.072482
258	-886.554257
259	-895.129901
260	-903.821581
261	-912.601867
262	-921.398343
263	-930.111377
264	-938.640273
265	-946.909386
266	-954.855284
267	-962.522475
268	-969.963396
269	-977.250565
270	-984.453334
271	-991.614499
272	-998.731541
273	-1005.747232
274	-1012.553145
275	-1019.006250
276	-1024.954007
277	-1030.259830
278	-1034.790501
279	-1038.513732
280	-1041.402393
281	-1043.453987
282	-1044.677888
283	-1045.084438
284	-1044.677888
285	-1043.453987
286	-1041.402393
287	-1038.513732
288	-1034.790501
289	-1030.259830
290	-1024.954007
291	-1019.006250
292	-1012.553145
293	-1005.747232
294	-998.731541
295	-991.614499
296	-984.453334
297	-977.250565
298	-969.963396
299	-962.522475
300	-954.855284
301	-946.909386
302	-938.640273
303	-930.111377
304	-921.398343
305	-912.601867
306	-903.821581
307	-895.129901
308	-886.554257
309	-878.072482
310	-869.621216
311	-861.113854
312	-852.463252
313	-843.604432
314	-834.481998
315	-825.149790
316	-815.674880
317	-806.150177
318	-796.668116
319	-787.294343
320	-778.049798
321	-768.905960
322	-759.793126
323	-750.618210
324	-741.287305
325	-731.728223
326	-721.877701
327	-711.780830
328	-701.494748
329	-691.100890
330	-680.678229
331	-670.276404
332	-659.897150
333	-649.488761
334	-638.953529
335	-628.164711
336	-616.988457
337	-605.306231
338	-593.002918
339	-580.068846
340	-566.508552
341	-552.361175
342	-537.684808
343	-522.542219
344	-506.993081
345	-491.092812
346	-474.893841
347	-458.444886
348	-441.787583
349	-424.953599
350	-407.965550
351	-390.841539
352	-373.599616
353	-356.258471
354	-338.834391
355	-321.338095
356	-303.775105
357	-286.149675
358	-268.468648
359	-250.741645
360	-232.977583
Line Voltage eab
